ID,longitude,latitude
0,224.0368080645850634713411864,-446.9983318002789252076922821
1,224.0368080645850634713411864,-446.9983318002789252076922821
2,239.0368060949012534642947560,-447.0040613776928307291049694
3,254.0367450347031432458554126,-447.0441683551018440711928290
4,269.0363294314192317590585913,-447.1530292296645187454177069
5,284.0347911083636162557964237,-447.3650159843566367171748194
6,299.0306528026787914512460854,-447.7144870596056653136594922
7,314.0214918032784486782981446,-448.2357701993962253488139668
8,329.0037035887902750419849101,-448.9631344633369075377142935
9,343.9722654654987525739087796,-449.9307486961787742727573349
10,358.9205002052879573866705874,-451.1726237462758838340079011
11,373.8398396835843588282979528,-452.7225357244781741060660378
12,388.7195885172996186366736283,-454.6139275949470428738144916
13,403.5466877027733900939638474,-456.8797863893839617694063707
14,418.3054782537161171810466732,-459.5524933361624609428530274
15,418.3054782537161588144100967,-459.5524933361624609428530274
16,432.9711587617828867750133561,-462.6990693707679581169655702
17,447.5358570864896908084815443,-466.2841339750010927833101104
18,461.9864659824319593032313271,-470.3044608327026321969354794
19,476.3099808769901739972183243,-474.7564319210646156054677757
20,490.4935115735674140794528632,-479.6360407666065096076634799
21,504.5242938518965432440708020,-484.9388960507310620339693341
22,518.3897009549763342065673334,-490.6602255616145614258071927
23,532.0772549523009649455971050,-496.7948804888753467434070043
24,545.5746379691549848115570178,-503.3373400571556589088628297
25,558.8697032718692499323551494,-510.2817164944468365039198087
26,571.9504861990613360615085305,-517.6217603306867099465704140
27,584.8052149290230757142736486,-525.3508660218606752333924814
28,597.4223210735656648776667800,-533.4620778945457176344801664
29,609.7904500887882158036787707,-541.9480964055467209849381160
30,621.8984714934005837808725693,-550.8012847109929566801666678
31,633.7354888854056285499935832,-560.0136755389817600569357236
32,645.2908497481252055142461933,-569.5769783595856739576901017
33,656.5541550367463892560279994,-579.4825868457696661028477192
34,667.5152685367595535684912313,-589.7215866185047351077285893
35,678.1643259858678769828130618,-600.2847632691072588617031269
36,688.4917439511568422564422355,-611.1626106515845824961785237
37,698.4882284535374515169834132,-622.3453394375252590375224426
38,708.1447833317001446066327510,-633.8228859258333803349727131
39,717.4527183380523860759623069,-645.5849210993806720015241862
40,726.4036569593552479621265440,-657.6208599204245398094825359
41,734.9895439550197857973088168,-669.9198708564275362508566158
42,743.2026526062799117004018292,-682.4708856277054936444925315
43,751.0355916697177054811660248,-695.2626091681323961612348339
44,758.4813120288835582120199098,-708.2835297899373561769009311
45,765.5331130380252142967420816,-721.5219295434464841864552053
46,772.1846485522168897323111771,-734.9658947624467487191223935
47,778.4299326384608637522475085,-748.6033267856815288176419298
48,784.2633449626235427157936221,-762.4219528448289662857972470
49,789.6796358473567641159760235,-776.4093371091650942005712576
50,794.6739309964529259059460066,-790.5528918769720814829126820
51,799.2417358813826751377049397,-804.8398889036202886259529632
52,803.3789397860670363041932553,-819.2574708561290120566921868
53,807.0818195062447793323243452,-833.7926628838986759594730924
54,810.3470427001046357088440465,-848.4323842952002465233518191
55,810.3470427001046357088440465,-848.4323842952002465233518191
56,813.0197496468831357860059836,-863.1911748461429734467785445
57,815.2856084413200555894958406,-878.0182740316167447653249276
58,817.1770003117889252683661334,-892.8980228653320044578862531
59,818.7269122899912164539703370,-907.8173623436284058046088814
60,819.9687873400883269305362945,-922.7655970834176105413277739
61,820.9364015729301945821394055,-937.7341589601260880140023598
62,821.6637658368708776884356175,-952.7163707456379143331509094
63,822.1850489766614386415142420,-967.7072097462375715282835822
64,822.5345200519104681562306161,-982.7030714405527467023343122
65,822.7465068066025870463786328,-997.7015331174971311860916995
66,822.8553676811652626390631617,-1012.701117514213219692629072
67,822.8954746585742768996323818,-1027.701056454015109471733885
68,822.9012042359881833395300478,-1042.701054484331299464336619
69,822.9012042359881842580151472,-1057.701054484331299464336619
70,822.9012042359881851765002466,-1072.701054484331299464336619
71,822.9012042359881860949853460,-1087.701054484331299464336619
72,822.9012042359881870134704454,-1102.701054484331299464336619
73,822.9012042359881879319555448,-1117.701054484331299464336619
74,822.9012042359881888504406442,-1132.701054484331299464336619
75,822.9012042359881897689257436,-1147.701054484331299464336619
76,822.9012042359881906874108430,-1162.701054484331299464336619
77,822.9012042359881916058959424,-1177.701054484331299464336619
78,822.9012042359881925243810418,-1192.701054484331299464336619
79,822.9012042359881934428661412,-1207.701054484331299464336619
80,822.9012042359881943613512406,-1222.701054484331299464336619
81,822.9012042359881952798363400,-1237.701054484331299464336619
82,822.9012042359881961983214394,-1252.701054484331299464336619
83,822.9012042359881971168065388,-1267.701054484331299464336619
84,822.9012042359881980352916382,-1282.701054484331299464336619
85,822.9012042359881989537767376,-1297.701054484331299464336619
86,822.9012042359881998722618370,-1312.701054484331299464336619
87,822.9012042359882007907469364,-1327.701054484331299464336619
88,822.9012042359882017092320358,-1342.701054484331299464336619
89,822.9012042359882026277171352,-1357.701054484331299464336619
90,822.9012042359882035462022346,-1372.701054484331299464336619
91,822.9012042359882044646873340,-1387.701054484331299464336619
92,822.9012042359882053831724334,-1402.701054484331299464336619
93,822.9012042359882063016575328,-1417.701054484331299464336619
94,822.9012042359882072201426322,-1432.701054484331299464336619
95,822.9012042359882081386277316,-1447.701054484331299464336619
96,822.9012042359882090571128310,-1462.701054484331299464336619
97,822.9012042359882099755979304,-1477.701054484331299464336619
98,822.9012042359882108940830298,-1492.701054484331299464336619
99,822.9012042359882118125681292,-1507.701054484331299464336619
100,822.9012042359882127310532286,-1522.701054484331299464336619
101,822.9012042359882136495383280,-1537.701054484331299464336619
102,822.9012042359882136495383280,-1537.701054484331299464336619
103,822.9069338134021200894359941,-1552.701052514647489456939353
104,822.9470407908111343500052141,-1567.700991454449379236044166
105,823.0559016653738099426897431,-1582.700575851165467742581538
106,823.2678884200659288328377598,-1597.699037528109852226338926
107,823.6173594953149583475541338,-1612.694899222425027400389656
108,824.1386426351055193006327583,-1627.685738223024684595522328
109,824.8660068990462024069289704,-1642.667950008536510914670878
110,825.8336211318880700585320813,-1657.636511885244988387345464
111,827.0754961819851805350980388,-1672.584746625034193124064356
112,828.6254081601874717207022425,-1687.504086103330594470786985
113,830.5168000306563413995725353,-1702.383834937045854163348310
114,832.7826588250932612030623923,-1717.210934122519625481894693
115,835.4553657718717612802243294,-1731.969724673462352405321419
116,835.4553657718717553073058688,-1731.969724673462502788674063
117,838.6019418064772524814184116,-1746.635405181529119726974860
118,842.1870064107103871477629518,-1761.200103506235812738140586
119,846.2073332684119265613883208,-1775.650712402178192255192831
120,850.6593043567739099699206171,-1789.974227296736295926877366
121,855.5389132023158594832675526,-1804.157757993313758053716830
122,860.8417684864403563984221755,-1818.188540271642776196032306
123,866.5630979973239113014112654,-1832.053947374722678180831300
124,872.6977529245846411078598457,-1845.741501372047197897558609
125,879.2402124928648977621644398,-1859.238884388901106741216059
126,886.1845889301561308683726501,-1872.533949691615482884316653
127,893.5246327663959487998720242,-1885.614732618807485746743188
128,901.2537384575699695978453228,-1898.469461348769336421810768
129,909.3649503302549564877817765,-1911.086567493311870074052668
130,917.8509688412560708605421887,-1923.454696508534476511215890
131,926.7041571467022510446195092,-1935.562717913146788977258458
132,935.9165479746911654436910275,-1947.399735305151944768681934
133,945.4798507952949683221429431,-1958.955096167871466221783313
134,955.3854592814789604673005606,-1970.218401456492483430111425
135,965.6244590542141404944838932,-1981.179514956505814276028351
136,976.1876357048165532261559683,-1991.828572405614026668047719
137,987.0654830872939323717825964,-2002.155990370903102963979355
138,998.2482118732344978908240527,-2012.152474873283656713369302
139,1009.725758361542785721728017,-2021.809029751446405314169871
140,1021.487793535090021877128259,-2031.116964757798591272348195
141,1033.523732356133945196237840,-2040.067903379101508669663664
142,1045.822743292136830615309457,-2048.653790374766046504845936
143,1058.373758063414732497794142,-2056.866899026026116896787718
144,1071.165481603841746036838906,-2064.699838089463910677551913
145,1084.186402225646622785778157,-2072.145558448629707897254567
146,1097.424801979155834062059278,-2079.197359457771475004279201
147,1110.868767198156043083575235,-2085.848894971963094928697066
148,1124.506199221390823182094771,-2092.094179058207068948633397
149,1138.324825280538288405825704,-2097.927591382369747912179510
150,1152.312209544874416320599715,-2103.343882267103024823513143
151,1166.455764312681431358516755,-2108.338177416199186613483126
152,1180.742761339329638501557036,-2112.905982301128880334090828
153,1195.160343291838389687871875,-2117.043186205813297011730375
154,1209.695535319607942568350318,-2120.746065925990984528710234
155,1224.335256730909527010016853,-2124.011289119850840905229935
156,1224.335256730909527010016853,-2124.011289119850840905229935
157,1239.094047281852254097099679,-2126.683996066629340078676592
158,1253.921146467326025554389898,-2128.949854861066258974268471
159,1268.800895301041285362765573,-2130.841246731535127742016925
160,1283.720234779337686804392939,-2132.391158709737418014075061
161,1298.668469519126891617154747,-2133.633033759834527575325627
162,1313.637031395835369149078616,-2134.600647992676394310368669
163,1328.619243181347195512765382,-2135.328012256617076499268996
164,1343.610082181946852739817441,-2135.849295396407636534423470
165,1358.605943876262027935267102,-2136.198766471656665130908143
166,1373.604405553206412432004935,-2136.410753226348783102665255
167,1388.603989949922500945208114,-2136.519614100911457776890133
168,1403.603928889724390726768770,-2136.559721078320471118977993
169,1418.603926920040580719722340,-2136.565450655734376640390680
170,1433.603926920040580719722340,-2136.565450655734376640390680
171,1448.603926920040580719722340,-2136.565450655734376640390680
172,1463.603926920040580719722340,-2136.565450655734376640390680
173,1478.603926920040580719722340,-2136.565450655734376640390680
174,1493.603926920040580719722340,-2136.565450655734376640390680
175,1508.603926920040580719722340,-2136.565450655734376640390680
176,1523.603926920040580719722340,-2136.565450655734376640390680
177,1538.603926920040580719722340,-2136.565450655734376640390680
178,1553.603926920040580719722340,-2136.565450655734376640390680
179,1568.603926920040580719722340,-2136.565450655734376640390680
180,1583.603926920040580719722340,-2136.565450655734376640390680
181,1598.603926920040580719722340,-2136.565450655734376640390680
182,1613.603926920040580719722340,-2136.565450655734376640390680
183,1628.603926920040580719722340,-2136.565450655734376640390680
184,1643.603926920040580719722340,-2136.565450655734376640390680
185,1658.603926920040580719722340,-2136.565450655734376640390680
186,1673.603926920040580719722340,-2136.565450655734376640390680
187,1688.603926920040580719722340,-2136.565450655734376640390680
188,1703.603926920040580719722340,-2136.565450655734376640390680
189,1718.603926920040580719722340,-2136.565450655734376640390680
190,1733.603926920040580719722340,-2136.565450655734376640390680
191,1748.603926920040580719722340,-2136.565450655734376640390680
192,1763.603926920040580719722340,-2136.565450655734376640390680
193,1778.603926920040580719722340,-2136.565450655734376640390680
194,1793.603926920040580719722340,-2136.565450655734376640390680
195,1808.603926920040580719722340,-2136.565450655734376640390680
196,1823.603926920040580719722340,-2136.565450655734376640390680
197,1838.603926920040580719722340,-2136.565450655734376640390680
198,1853.603926920040580719722340,-2136.565450655734376640390680
199,1868.603926920040580719722340,-2136.565450655734376640390680
200,1883.603926920040580719722340,-2136.565450655734376640390680
201,1898.603926920040580719722340,-2136.565450655734376640390680
202,1913.603926920040580719722340,-2136.565450655734376640390680
203,1913.603926920040580719722340,-2136.565450655734376640390680
204,1927.628871603510015013088331,-2136.584183939492261921748523
205,1941.653140685286614357706797,-2136.715314347486823610516117
206,1955.673356156906204009840114,-2137.071202907605844183780855
207,1969.680735196361929635770460,-2137.764030165992636467018362
208,1983.658387761332917516809715,-2138.905435223557104330868941
209,1997.578614182412934754309361,-2140.605829905346758015012844
210,2011.400202756339049474670387,-2142.973279773731002288177277
211,2011.400202756339070291352098,-2142.973279773731002288177277
212,2026.015392172725836288387822,-2146.339100093150318208405819
213,2040.402454067976077882756212,-2150.575249066182079619484652
214,2054.509610555429262506182451,-2155.666481131015302833735431
215,2068.286091105631473356945602,-2161.594473350087445188454266
216,2081.682315265415615850324624,-2168.337891352873190068710668
217,2094.650071093992528741283874,-2175.872466116580109433447004
218,2107.142688673875098785986435,-2184.171081308423132309219822
219,2119.115208072183805159143841,-2193.203870875140651845218626
220,2130.524541147854185512161049,-2202.938326528534604868174623
221,2141.329626622414929375553581,-2213.339414740203401247602327
222,2151.491577856249716642638756,-2224.369702824412401335511985
223,2160.973822798507183922128203,-2235.989493655340107817512857
224,2169.742235606990883782801458,-2248.156968533863539942179072
225,2177.765259464339843624730062,-2260.828337689715969897368181
226,2185.014020148493598032518090,-2273.957997877373013909978366
227,2191.462429948711422760270804,-2287.498696498490536225571729
228,2197.087281553159372942135061,-2301.401701660232318917036393
229,2201.868331570172328452999520,-2315.616977557459916129727245
230,2205.788373382603380550309222,-2330.093364547599109796487310
231,2205.788373382603380550309222,-2330.093364547599109796487310
232,2208.155823250987625669801866,-2343.914953121525224371883840
233,2209.856217932777280206313805,-2357.835179542605241505264342
234,2210.997622990341748926048758,-2371.812832107576229316412694
235,2211.690450248728542066990859,-2385.820211147031954899919606
236,2212.046338808847563498746198,-2399.840426618651544530261034
237,2212.177469216842126046252603,-2413.864695700428143866850078
238,2212.196202500600012186390628,-2427.889640383897578159068986
239,2212.196202500600013104875727,-2442.889640383897578159068986
240,2212.196202500600014023360826,-2457.889640383897578159068986
241,2212.196202500600014941845925,-2472.889640383897578159068986
242,2212.196202500600014941845925,-2472.889640383897578159068986
243,2212.214935784357901081983949,-2486.914585067367012451287894
244,2212.346066192352463629490355,-2500.938854149143611787876938
245,2212.701954752471485061245693,-2514.959069620763201418218366
246,2213.394782010858278202187795,-2528.966448660218927001725278
247,2214.536187068422746921922748,-2542.944101225189914812873630
248,2216.236581750212401458434687,-2556.864327646269931946254132
249,2218.604031618596646577927331,-2570.685916220196046521650662
250,2218.604031618596643591468100,-2570.685916220196121713326984
251,2221.900578629339311129820280,-2585.036229969953513259307296
252,2226.036222645615868440794052,-2599.167584309900846180264320
253,2230.996618029703358807702975,-2613.030960685951380813230880
254,2236.764558263133966162905799,-2626.578270100521072323497005
255,2243.320035632315516602852958,-2639.762519922663421630049949
256,2250.640310630881206686149389,-2652.537976895151196972323102
257,2258.699990838025854964621621,-2664.860325773067031081199072
258,2267.471118999218070353529888,-2676.686823043622517133345038
259,2276.923270003755099741960257,-2687.976445193984433652746044
260,2287.023656422767385807526543,-2698.690031012800862671086885
261,2297.737242241583814825867384,-2708.790417431813148736653172
262,2309.026864391945814611995238,-2718.242568436350261391810388
263,2320.853361662501217397414357,-2727.013696597542393513991807
264,2333.175710540417051506290327,-2735.073376804687041792464039
265,2345.951167512904826848563480,-2742.393651803252731875760470
266,2359.135417335047301055206694,-2748.949129172434337826858861
267,2372.682726749616881543170357,-2754.717069405864861915334838
268,2386.546103125667416176136917,-2759.677464789952380037819377
269,2400.677457465614804608245172,-2763.813108806228937348793148
270,2415.027771215372203093119387,-2767.109655816971577131569713
271,2415.027771215372203093119387,-2767.109655816971577131569713
272,2428.849359789298317813480412,-2769.477105685355821404734146
273,2442.769586210378335050980059,-2771.177500367145475088878049
274,2456.747238775349322932019314,-2772.318905424709942952728628
275,2470.754617814805048557949660,-2773.011732683096735235966135
276,2484.774833286424638210082977,-2773.367621243215755809230873
277,2498.799102368201237554701443,-2773.498751651210317497998467
278,2512.824047051670671848067434,-2773.517484934968202779356310
279,2527.824047051670671848067434,-2773.517484934968202779356310
280,2542.824047051670671848067434,-2773.517484934968202779356310
281,2557.824047051670671848067434,-2773.517484934968202779356310
282,2572.824047051670671848067434,-2773.517484934968202779356310
283,2587.824047051670671848067434,-2773.517484934968202779356310
284,2602.824047051670671848067434,-2773.517484934968202779356310
285,2617.824047051670671848067434,-2773.517484934968202779356310
286,2632.824047051670671848067434,-2773.517484934968202779356310
287,2647.824047051670671848067434,-2773.517484934968202779356310
288,2662.824047051670671848067434,-2773.517484934968202779356310
289,2677.824047051670671848067434,-2773.517484934968202779356310
290,2692.824047051670671848067434,-2773.517484934968202779356310
291,2707.824047051670671848067434,-2773.517484934968202779356310
292,2722.824047051670671848067434,-2773.517484934968202779356310
293,2737.824047051670671848067434,-2773.517484934968202779356310
294,2752.824047051670671848067434,-2773.517484934968202779356310
295,2767.824047051670671848067434,-2773.517484934968202779356310
296,2782.824047051670671848067434,-2773.517484934968202779356310
297,2797.824047051670671848067434,-2773.517484934968202779356310
298,2812.824047051670671848067434,-2773.517484934968202779356310
299,2827.824047051670671848067434,-2773.517484934968202779356310
300,2842.824047051670671848067434,-2773.517484934968202779356310
301,2857.824047051670671848067434,-2773.517484934968202779356310
302,2872.824047051670671848067434,-2773.517484934968202779356310
303,2887.824047051670671848067434,-2773.517484934968202779356310
